# # time shift (tau) UVW2 Cont1150_not_optical_calibrated LyAlpha_not_optical_calibrated HBeta_not_optical_calibrated OI8446_not_optical_calibrated Cont1450_not_optical_calibrated
-1.000000000000000000e+01 -5.554584804932696240e-01 -2.624487241923727510e-01 -1.586800098120879077e-01 2.435320604602285166e-01 4.899529427778318569e-01 -2.126029575204943511e-01
-9.000000000000000000e+00 -4.363357278798764005e-01 -1.137879811527173213e-01 -2.343227148752967115e-01 2.154193719946067009e-01 4.991278895673130211e-01 -7.972989308998150448e-02
-8.000000000000000000e+00 -1.765553365169410804e-01 8.313648438130696872e-02 -1.326398447960236981e-01 2.144257299161388408e-01 5.117253941883601609e-01 1.452778723384025583e-01
-7.000000000000000000e+00 4.291157032718667663e-02 2.704705404141284353e-01 6.374164592258259321e-02 4.035341733104363393e-01 3.255427872089524666e-01 3.472818830659800682e-01
-6.000000000000000000e+00 1.632019961670877484e-01 3.293056039238372312e-01 1.923149387853383407e-01 3.749784391773279268e-01 3.289960524698810618e-01 4.238033977386004292e-01
-5.000000000000000000e+00 2.615461163777040854e-01 3.899860528075085320e-01 1.838096002667238549e-01 2.870632145668519097e-01 1.860496655801997246e-01 4.579999400068783810e-01
-4.000000000000000000e+00 3.643496053777500188e-01 3.415919671171766536e-01 1.487281359536867797e-01 2.814759934751572823e-01 2.604939502376980159e-02 3.795325112458539651e-01
-3.000000000000000000e+00 4.733987391986865800e-01 4.043596606472499300e-01 1.972309739961058128e-01 2.474267444371005542e-01 -8.228971619343040944e-02 4.169820280442540494e-01
-2.000000000000000000e+00 5.994877836719407771e-01 6.001216271525511292e-01 2.705713439827047706e-01 2.278959242308584432e-01 -1.227506660055699417e-01 6.169629525662797542e-01
-1.000000000000000000e+00 8.317687240812956517e-01 8.365064402413235900e-01 4.735146933429903449e-01 4.115801797513854998e-01 4.626409988192211470e-02 8.427694512652859071e-01
0.000000000000000000e+00 9.999999999999997780e-01 8.957243150915906726e-01 7.540805999855005881e-01 6.610711445785064644e-01 2.546034671467504173e-01 9.389580477721702900e-01
1.000000000000000000e+00 8.317687240812956517e-01 7.064298125579531185e-01 8.978481969702644117e-01 8.146493071823983634e-01 4.395550596730058435e-01 7.824804897714370266e-01
2.000000000000000000e+00 5.994877836719407771e-01 4.993709971972656314e-01 7.885912020384240328e-01 7.792557777924735696e-01 3.978518064568838941e-01 5.640251887273703968e-01
3.000000000000000000e+00 4.733987391986865800e-01 2.933994238626628226e-01 6.447513605501565825e-01 6.382329955450971593e-01 4.733971844443118915e-01 3.519474911214340862e-01
4.000000000000000000e+00 3.643496053777500188e-01 2.094727569916202126e-01 6.009501881851908589e-01 5.526836099248630951e-01 4.282832008374535260e-01 2.716277166217386241e-01
5.000000000000000000e+00 2.615461163777040854e-01 1.539069776340787621e-01 4.733488395740184096e-01 4.239795435277071145e-01 2.041260931743457130e-01 2.289912962261398954e-01
6.000000000000000000e+00 1.632019961670877484e-01 1.878661286234580285e-01 2.544906587210890025e-01 2.950272349043401854e-01 1.985089278449198580e-01 2.113708491432449987e-01
7.000000000000000000e+00 4.291157032718667663e-02 1.520744770985097138e-01 8.217386219723675500e-02 1.894649642559048108e-01 3.544213135790815761e-01 1.174704803583132978e-01
8.000000000000000000e+00 -1.765553365169410804e-01 -2.435699743247021765e-01 -9.396347979024902153e-02 1.773056596453665423e-01 3.802665363335299142e-01 -2.756150373008182664e-01
9.000000000000000000e+00 -4.363357278798764005e-01 -4.681960305089164498e-01 -2.342336008167004158e-01 2.806971506442670905e-01 2.420430350410285314e-01 -4.708269375741748752e-01
1.000000000000000000e+01 -5.554584804932696240e-01 -4.289620259158535842e-01 -5.153212162477474045e-01 4.189158242814013111e-02 2.337403101506593528e-01 -4.758158409317352344e-01
1.100000000000000000e+01 -4.616052077833682210e-01 -3.378773221273091432e-01 -5.511136420037545669e-01 -4.973911255419812827e-01 6.080652114922568963e-02 -3.449164292757680439e-01
1.200000000000000000e+01 -4.508482777041450396e-01 -4.750440009411021625e-01 -3.597808186184873747e-01 -6.666356728874830440e-01 -1.680035785546059035e-01 -2.964286709243948437e-01
1.300000000000000000e+01 -4.918543236032464905e-01 -5.917483980489887108e-01 -3.313073809645818990e-01 -5.220894775995835735e-01 -4.388863956647450770e-01 -4.880713638530653209e-01
1.400000000000000000e+01 -4.409081286944059874e-01 -3.417095335563139491e-01 -5.504615310340847945e-01 -5.386069565651817603e-01 -4.965344203422397684e-01 -5.276776991018743423e-01
1.500000000000000000e+01 -1.857962674825700544e-01 -8.053942635777304460e-02 -4.599248691698856195e-01 -4.816373823570542778e-01 -4.156761234576547004e-01 -4.182703003121696073e-01
