# # time shift (tau) UVW2
-1.000000000000000000e+01 -5.554584804932698461e-01
-9.500000000000000000e+00 -4.909303718083014578e-01
-9.000000000000000000e+00 -4.363357278798764005e-01
-8.500000000000000000e+00 -3.103613622694227914e-01
-8.000000000000000000e+00 -1.765553365169412192e-01
-7.500000000000000000e+00 -6.519856808193504050e-02
-7.000000000000000000e+00 4.291157032718675990e-02
-6.500000000000000000e+00 1.316260186347019689e-01
-6.000000000000000000e+00 1.632019961670877484e-01
-5.500000000000000000e+00 2.075220463085580280e-01
-5.000000000000000000e+00 2.615461163777040299e-01
-4.500000000000000000e+00 2.950232681886832409e-01
-4.000000000000000000e+00 3.643496053777500743e-01
-3.500000000000000000e+00 4.546372432702452948e-01
-3.000000000000000000e+00 4.733987391986867466e-01
-2.500000000000000000e+00 5.584198107500544239e-01
-2.000000000000000000e+00 5.994877836719409991e-01
-1.500000000000000000e+00 7.143186542749262458e-01
-1.000000000000000000e+00 8.317687240812956517e-01
-5.000000000000000000e-01 9.268197549368542010e-01
0.000000000000000000e+00 1.000000000000000000e+00
5.000000000000000000e-01 9.268197549368542010e-01
1.000000000000000000e+00 8.317687240812956517e-01
1.500000000000000000e+00 7.143186542749262458e-01
2.000000000000000000e+00 5.994877836719409991e-01
2.500000000000000000e+00 5.584198107500544239e-01
3.000000000000000000e+00 4.733987391986866911e-01
3.500000000000000000e+00 4.546372432702452393e-01
4.000000000000000000e+00 3.643496053777500188e-01
4.500000000000000000e+00 2.950232681886831854e-01
5.000000000000000000e+00 2.615461163777040854e-01
5.500000000000000000e+00 2.075220463085580280e-01
6.000000000000000000e+00 1.632019961670877761e-01
6.500000000000000000e+00 1.316260186347019689e-01
7.000000000000000000e+00 4.291157032718675990e-02
7.500000000000000000e+00 -6.519856808193504050e-02
8.000000000000000000e+00 -1.765553365169412192e-01
8.500000000000000000e+00 -3.103613622694227914e-01
9.000000000000000000e+00 -4.363357278798764005e-01
9.500000000000000000e+00 -4.909303718083014578e-01
1.000000000000000000e+01 -5.554584804932698461e-01
1.050000000000000000e+01 -4.807833062550441738e-01
1.100000000000000000e+01 -4.616052077833683320e-01
1.150000000000000000e+01 -4.314976982620497559e-01
1.200000000000000000e+01 -4.508482777041450396e-01
1.250000000000000000e+01 -4.454959428513711739e-01
1.300000000000000000e+01 -4.918543236032464905e-01
1.350000000000000000e+01 -4.571982361466198075e-01
1.400000000000000000e+01 -4.409081286944059874e-01
1.450000000000000000e+01 -3.102045061391177638e-01
1.500000000000000000e+01 -1.857962674825703875e-01
