# # time shift (tau) UVW2 Cont1150_not_optical_calibrated LyAlpha_not_optical_calibrated HBeta_not_optical_calibrated OI8446_not_optical_calibrated
-1.000000000000000000e+01 -5.296873626347553543e-01 -1.655384495555279334e-01 -1.954473235071897685e-01 3.222952763501175100e-01 5.558173681768231456e-01
-9.000000000000000000e+00 -3.215218250107442222e-01 -7.035218388314995464e-02 -2.986390299290420103e-01 1.745442367619360613e-01 4.093999607838383903e-01
-8.000000000000000000e+00 -1.232214686570776568e-01 1.223112653750371981e-01 -1.693618416045192254e-01 1.976744608397117409e-01 3.657499162425108530e-01
-7.000000000000000000e+00 1.711399135845614317e-01 3.129198003658908434e-01 -1.105009203879010748e-01 1.522958623030423175e-01 -2.076731919441376917e-02
-6.000000000000000000e+00 3.792657672481758446e-01 4.766907958188731920e-01 -1.512084388410939867e-02 6.256111225280353016e-02 -6.894610503659470702e-02
-5.000000000000000000e+00 5.816038881804144189e-01 6.137224114304768996e-01 8.446642469921546159e-02 2.083181874261570421e-01 -3.330546053484503832e-02
-4.000000000000000000e+00 6.882140456221512714e-01 6.216654741220657421e-01 2.655815898165017619e-01 1.302854656374111131e-01 -2.045843933118687563e-01
-3.000000000000000000e+00 7.635932383240910948e-01 6.634910139767338233e-01 4.175910094783760185e-01 3.482610731481486921e-01 -1.004022149093182076e-01
-2.000000000000000000e+00 8.478349027185622111e-01 8.048843524081239487e-01 6.593759830440165670e-01 4.616593938868073232e-01 7.089284159517328376e-02
-1.000000000000000000e+00 8.709864955921878815e-01 7.262999137709671427e-01 7.885499454959998822e-01 6.524417164269151748e-01 2.987099228481051028e-01
0.000000000000000000e+00 7.132405121757117161e-01 5.262162977534504682e-01 9.514655568845515887e-01 6.845417498586148231e-01 4.540962123016783480e-01
1.000000000000000000e+00 4.658909942466320508e-01 2.557081361092741201e-01 6.975670950134207349e-01 7.214443730058921478e-01 3.806614133884935747e-01
2.000000000000000000e+00 2.669850975159494544e-01 1.596318279622633424e-02 4.748986034334631290e-01 4.318926976729267619e-01 2.915464659883895138e-01
3.000000000000000000e+00 1.348309248058998377e-01 -2.961641625564163938e-03 1.620937822026965180e-01 3.593138066485824789e-01 5.021863936788306670e-01
4.000000000000000000e+00 8.575563861761525963e-02 2.103979656284184208e-02 5.383414994375238655e-02 1.783183926224804483e-01 6.927748096285318846e-02
5.000000000000000000e+00 1.013504461687074198e-01 1.791955713698887009e-01 -2.105350422410526279e-02 3.163045395297954809e-01 3.274826700229287457e-01
6.000000000000000000e+00 5.151927228268387421e-03 2.327907230128380134e-01 -1.091583245383179190e-01 2.342931845414705228e-01 3.895249793745660383e-01
7.000000000000000000e+00 -1.321500471607585658e-01 9.069053037095679837e-02 -2.299525927010767079e-01 1.088740640945064508e-01 4.038969191026540173e-01
8.000000000000000000e+00 -2.717387185591293441e-01 -1.085517362917624573e-01 -1.865994298651993122e-01 5.503520696411207114e-02 2.876880363814426911e-01
9.000000000000000000e+00 -3.499169246960228685e-01 -1.796631332746987941e-01 -2.734443036130559945e-01 -1.449107734037787809e-01 -6.709426333788250096e-02
1.000000000000000000e+01 -2.181110196484672414e-01 -1.423159044153712860e-01 -2.722581308683538204e-01 -4.849697344716333847e-01 -3.947130663295737030e-01
1.100000000000000000e+01 2.529870514243369450e-02 5.663626711709919548e-02 -3.611676006156930990e-02 -4.994692883118400095e-01 -3.675419032670915742e-01
1.200000000000000000e+01 2.079916470309309817e-01 1.623751031084088026e-01 1.235722100145000280e-01 -4.318996339640132631e-01 -5.899762939791012295e-01
1.300000000000000000e+01 3.929287379068080455e-01 2.648569377753079435e-01 2.569889120468418220e-01 -1.293994606457748997e-01 -5.141148786877969279e-01
1.400000000000000000e+01 5.946275036270737280e-01 4.903393987978589275e-01 3.729249504785053237e-01 3.205445806139452514e-01 -6.385899783175250088e-02
1.500000000000000000e+01 7.317281313513768204e-01 7.077788680066707805e-01 6.149656434237880109e-01 5.770179870885555617e-01 1.204623643753798962e-01
