# # time shift (tau) UVW2 Cont1150_not_optical_calibrated LyAlpha_not_optical_calibrated HBeta_not_optical_calibrated OI8446_not_optical_calibrated Cont1460_not_optical_calibrated
-5.000000000000000000e+00 2.289912962261398954e-01 2.897252728530800292e-01 2.364637131467085540e-01 4.019027510080644960e-01 1.433263274806826360e-01 3.618540112338994308e-01
-4.500000000000000000e+00 2.820616296833062808e-01 2.343519604583723659e-01 1.689923804039747401e-01 3.773343118137592045e-01 1.397461681209794526e-01 2.827541617189761602e-01
-4.000000000000000000e+00 2.716277166217386241e-01 1.829171811468646436e-01 7.153322185250074461e-02 2.990452962906423595e-01 6.728133046911258242e-02 2.194866142636127115e-01
-3.500000000000000000e+00 3.275578251896729132e-01 2.569796606845830556e-01 9.737330146480632775e-02 2.993996644844154065e-01 8.122645767735234279e-02 2.690671679774823133e-01
-3.000000000000000000e+00 3.519474911214341417e-01 3.230908225105554865e-01 4.491383098483400088e-02 2.224699992915694369e-01 4.703114273474978679e-02 3.161174856473203398e-01
-2.500000000000000000e+00 4.538312681864416498e-01 4.721513893712891985e-01 7.929487249934671911e-02 2.198368009111454913e-01 -3.145352716826860240e-02 4.558079552167676463e-01
-2.000000000000000000e+00 5.640251887273703968e-01 5.660127622618920107e-01 1.255078037310419781e-01 1.850484507605006101e-01 -1.034519389618001328e-01 5.517443339295721172e-01
-1.500000000000000000e+00 6.577927870386319764e-01 7.331074318532513345e-01 2.846396682229402897e-01 3.219240953656439808e-01 5.845554234761984880e-02 7.192022761637766326e-01
-1.000000000000000000e+00 7.824804897714370266e-01 8.194410083819412272e-01 4.074015052401382397e-01 3.998224558337660772e-01 1.616562627758736659e-01 8.184411685389119118e-01
-5.000000000000000000e-01 8.657827388176480010e-01 9.515987471095483929e-01 5.874936251335132198e-01 5.383294779833820431e-01 3.240101860031778247e-01 9.539281833649799758e-01
0.000000000000000000e+00 9.389580477721704010e-01 9.793797674988373725e-01 7.090456113231086155e-01 6.040870809509720774e-01 3.717600675181402803e-01 1.000000000000000000e+00
5.000000000000000000e-01 9.216813374536383385e-01 9.122476065927549449e-01 8.196795090271378204e-01 7.197262999091353919e-01 4.267995660988993523e-01 9.539281833649799758e-01
1.000000000000000000e+00 8.427694512652859071e-01 7.469518479726118265e-01 8.683366946051991331e-01 7.559329519747026715e-01 4.026113963791043693e-01 8.184411685389119118e-01
1.500000000000000000e+00 7.426624023627768079e-01 6.287579247304238006e-01 9.032025744933926958e-01 8.082606259036493324e-01 4.694571068770873601e-01 7.192022761637766326e-01
2.000000000000000000e+00 6.169629525662795322e-01 4.472423006958489711e-01 8.300561991727432032e-01 7.321317096067792018e-01 3.964598572167370993e-01 5.517443339295721172e-01
2.500000000000000000e+00 4.753428792345704146e-01 3.672000209263305281e-01 7.481160123194039446e-01 7.370142047779281169e-01 4.541791336133940149e-01 4.558079552167676463e-01
3.000000000000000000e+00 4.169820280442540494e-01 2.463996063104638146e-01 5.794958742097182647e-01 6.217413456557139284e-01 3.178959026608508265e-01 3.161174856473203398e-01
3.500000000000000000e+00 3.054685226306370627e-01 1.998591230737426228e-01 5.446758125859001431e-01 5.253426208912765905e-01 2.950554036603215691e-01 2.690671679774823133e-01
4.000000000000000000e+00 3.795325112458539096e-01 1.557877789096666077e-01 4.631142649065382311e-01 3.415837414071951628e-01 1.523102103530058204e-01 2.194866142636127115e-01
4.500000000000000000e+00 3.728975400576153287e-01 2.156559559774312018e-01 4.514388099983974723e-01 3.431964141065302343e-01 1.923568679400719239e-01 2.827541617189761602e-01
5.000000000000000000e+00 4.579999400068783810e-01 3.030483463677964284e-01 4.609468215384616707e-01 3.682335084685914861e-01 2.118615279347385028e-01 3.618540112338994308e-01
5.500000000000000000e+00 3.976664284104977076e-01 3.692294900232378496e-01 4.799047602668288226e-01 4.309211441666562781e-01 2.082727821136317603e-01 4.157256059655321523e-01
6.000000000000000000e+00 4.238033977386004292e-01 3.548071179963798727e-01 4.403140652433786828e-01 3.706830751249555744e-01 1.078213327486904349e-01 3.909039097509503513e-01
6.500000000000000000e+00 3.615143087561989987e-01 3.907607682094335622e-01 3.896889245911115962e-01 3.638024858269010564e-01 1.783363579589051784e-01 4.043488466313709395e-01
7.000000000000000000e+00 3.472818830659800682e-01 3.603963502198049840e-01 2.809847190704204412e-01 3.357912726915786572e-01 2.278059418624873433e-01 3.488956102195351905e-01
7.500000000000000000e+00 2.730175862616966986e-01 3.570238711574229562e-01 2.584860666975946630e-01 4.581437006920154875e-01 4.810638292440879704e-01 3.278676675599458967e-01
8.000000000000000000e+00 1.452778723384025028e-01 2.534159503302951810e-01 1.615513189674945838e-01 4.804210387649896496e-01 5.463953599058937183e-01 1.971572557927158964e-01
8.500000000000000000e+00 7.336763208372301670e-02 1.890891829283039560e-01 1.369363820778701224e-01 5.380803360227743859e-01 5.913584489884531337e-01 1.220551000680204223e-01
9.000000000000000000e+00 -7.972989308998150448e-02 1.578032540218192795e-02 4.455699763276706887e-02 4.730523810082856162e-01 4.600239399568693544e-01 -4.894312382646572035e-02
9.500000000000000000e+00 -1.424529917836359627e-01 -7.222887502958323658e-02 4.065783159742062530e-02 4.373395767973095039e-01 4.493592445397376345e-01 -9.347550101498716679e-02
1.000000000000000000e+01 -2.126029575204943511e-01 -1.925254243909678420e-01 -8.222502554678445819e-02 3.125363557612012011e-01 3.647336145830558651e-01 -1.773515066081528813e-01
